/home/yjzhu/Downloads/FeXIII_202_203_dens.txt
Intensity (Ergs) Ratio calculated with CHIANTI V. 10.1 
Fe XIII CHIANTI V. 10.1 Fe XIII 202.0440 (A) /203.8260+203.7950 (A)
at constant Temperature= 1.78e+06 (K)
 
Density (cm-3) ratio 
 
  1.00000e+06       17.220889
  1.77828e+06       16.958758
  3.16228e+06       16.511705
  5.62341e+06       15.772038
  1.00000e+07       14.607545
  1.77828e+07       12.910394
  3.16228e+07       10.696146
  5.62341e+07       8.1908259
  1.00000e+08       5.7767369
  1.77828e+08       3.7889643
  3.16228e+08       2.3597476
  5.62341e+08       1.4366356
  1.00000e+09      0.88703627
  1.77828e+09      0.57855126
  3.16228e+09      0.41171750
  5.62341e+09      0.32315160
  1.00000e+10      0.27658157
  1.77828e+10      0.25235662
  3.16228e+10      0.23995350
  5.62341e+10      0.23373037
  1.00000e+11      0.23068589
  1.77828e+11      0.22923898
  3.16228e+11      0.22856659
  5.62341e+11      0.22825491
  1.00000e+12      0.22810749
