/home/yjzhu/Downloads/FeXII_186_195_dens.txt
Intensity (Ergs) Ratio calculated with CHIANTI V. 10.1 
Fe XII CHIANTI V. 10.1 Fe XII 186.8540+186.8870 (A) /195.1790+195.1190 (A)
at constant Temperature= 1.41e+06 (K)
 
Density (cm-3) ratio 
 
  1.00000e+06     0.019671343
  1.77828e+06     0.020560120
  3.16228e+06     0.022130081
  5.62341e+06     0.024889119
  1.00000e+07     0.029694606
  1.77828e+07     0.037936317
  3.16228e+07     0.051709274
  5.62341e+07     0.073780829
  1.00000e+08      0.10698272
  1.77828e+08      0.15283641
  3.16228e+08      0.21034563
  5.62341e+08      0.27696714
  1.00000e+09      0.35166673
  1.77828e+09      0.43618789
  3.16228e+09      0.53214852
  5.62341e+09      0.63731301
  1.00000e+10      0.74597728
  1.77828e+10      0.85279373
  3.16228e+10      0.95444176
  5.62341e+10       1.0473540
  1.00000e+11       1.1260017
  1.77828e+11       1.1853388
  3.16228e+11       1.2244427
  5.62341e+11       1.2468964
  1.00000e+12       1.2582510
